"Points:0","Points:1","Points:2","Pressure","Total_Pressure","Velocity:0","Velocity:1","Velocity:2"
-0.97909,-5.2983e-16,0,8.4841,8.4841,0,0,0
-0.99903,-5.3064e-16,0,8.5037,8.5037,0,0,0
-1.0199,-5.3149e-16,0,8.5237,8.5237,0,0,0
-1.0421,-5.324e-16,0,8.5441,8.5441,0,0,0
-1.0682,-5.3347e-16,0,8.5671,8.5671,0,0,0
-1.0976,-5.3466e-16,0,8.5916,8.5916,0,0,0
-1.1275,-5.3588e-16,0,8.6153,8.6153,0,0,0
-1.1574,-5.3711e-16,0,8.6375,8.6375,0,0,0
-1.1873,-5.3833e-16,0,8.6584,8.6584,0,0,0
-1.2172,-5.3955e-16,0,8.6781,8.6781,0,0,0
-1.2472,-5.4077e-16,0,8.6966,8.6966,0,0,0
-1.2771,-5.4199e-16,0,8.714,8.714,0,0,0
-1.307,-5.4321e-16,0,8.7304,8.7304,0,0,0
-1.3369,-5.4443e-16,0,8.7459,8.7459,0,0,0
-1.3668,-5.4565e-16,0,8.7604,8.7604,0,0,0
-1.3967,-5.4688e-16,0,8.7741,8.7741,0,0,0
-1.4267,-5.481e-16,0,8.7869,8.7869,0,0,0
-1.4566,-5.4932e-16,0,8.7991,8.7991,0,0,0
-1.4865,-5.5054e-16,0,8.8105,8.8105,0,0,0
-1.5164,-5.5176e-16,0,8.8213,8.8213,0,0,0
-1.5463,-5.5298e-16,0,8.8314,8.8314,0,0,0
-1.5762,-5.542e-16,0,8.841,8.841,0,0,0
-1.6062,-5.5542e-16,0,8.8501,8.8501,0,0,0
-1.6361,-5.5665e-16,0,8.8588,8.8588,0,0,0
-1.666,-5.5787e-16,0,8.8669,8.8669,0,0,0
-1.6959,-5.5909e-16,0,8.8747,8.8747,0,0,0
-1.7258,-5.6031e-16,0,8.8821,8.8821,0,0,0
-1.7558,-5.6153e-16,0,8.8893,8.8893,0,0,0
-1.7857,-5.6275e-16,0,8.8961,8.8961,0,0,0
-1.8156,-5.6397e-16,0,8.9027,8.9027,0,0,0
-1.8455,-5.652e-16,0,8.9091,8.9091,0,0,0
-1.8754,-5.6642e-16,0,8.9155,8.9155,0,0,0
-1.9053,-5.6764e-16,0,8.9218,8.9218,0,0,0
-1.9353,-5.6886e-16,0,8.928,8.928,0,0,0
-1.9652,-5.7008e-16,0,8.934,8.934,0,0,0
-1.9951,-5.713e-16,0,8.9398,8.9398,0,0,0
-2.0255,-5.7254e-16,0,8.9454,8.9454,0,0,0
-2.06,-5.7395e-16,0,8.9513,8.9513,0,0,0
11.654,0.5,0,0.12953,0.12953,0,0,0
11.703,0.5,0,0.11059,0.11059,0,0,0
11.753,0.5,0,0.091607,0.091607,0,0,0
11.803,0.5,0,0.072532,0.072532,0,0,0
11.852,0.5,0,0.05355,0.05355,0,0,0
11.902,0.5,0,0.034917,0.034917,0,0,0
11.952,0.5,0,0.016859,0.016859,0,0,0
12,0.42871,0,0,2.1744,2.0857,-0.0036735,0
12,0.40745,0,0,3.3416,2.5858,-0.00080918,0
12,0.44721,0,0,1.2974,1.6111,-0.0028171,0
12,0.46329,0,0,0.67375,1.161,-0.0018469,0
12,0.47727,0,0,0.27486,0.74168,-0.0010309,0
12,0.48943,0,0,0.063419,0.35662,-0.00039914,0
12,0.5,0,0,-0.00015931,0,0,0
0,-4.8986e-16,0,6.3943,6.3943,0,0,0
-0.019945,-4.9067e-16,0,6.4667,6.4667,0,0,0
-0.03989,-4.9149e-16,0,6.5389,6.5389,0,0,0
-0.059835,-4.923e-16,0,6.6104,6.6104,0,0,0
-0.07978,-4.9312e-16,0,6.6809,6.6809,0,0,0
-0.099725,-4.9393e-16,0,6.7504,6.7504,0,0,0
-0.11967,-4.9474e-16,0,6.8186,6.8186,0,0,0
-0.13961,-4.9556e-16,0,6.8853,6.8853,0,0,0
-0.15956,-4.9637e-16,0,6.9504,6.9504,0,0,0
-0.1795,-4.9719e-16,0,7.0138,7.0138,0,0,0
-0.19945,-4.98e-16,0,7.0755,7.0755,0,0,0
-0.21939,-4.9881e-16,0,7.1354,7.1354,0,0,0
-0.23934,-4.9963e-16,0,7.1934,7.1934,0,0,0
-2.101,-5.7563e-16,0,8.9576,8.9576,0,0,0
-2.148,-5.7754e-16,0,8.9643,8.9643,0,0,0
-2.1973,-5.7956e-16,0,8.9707,8.9707,0,0,0
-2.2474,-5.816e-16,0,8.9768,8.9768,0,0,0
-2.2974,-5.8364e-16,0,8.9825,8.9825,0,0,0
-2.3475,-5.8569e-16,0,8.9878,8.9878,0,0,0
-2.3976,-5.8773e-16,0,8.9929,8.9929,0,0,0
-2.4477,-5.8978e-16,0,8.9978,8.9978,0,0,0
-2.4977,-5.9182e-16,0,9.0024,9.0024,0,0,0
-2.5478,-5.9386e-16,0,9.0068,9.0068,0,0,0
-2.5979,-5.9591e-16,0,9.0111,9.0111,0,0,0
-2.6479,-5.9795e-16,0,9.0152,9.0152,0,0,0
-2.698,-6e-16,0,9.0191,9.0191,0,0,0
-2.7481,-6.0204e-16,0,9.0229,9.0229,0,0,0
-2.7981,-6.0408e-16,0,9.0266,9.0266,0,0,0
-2.8482,-6.0613e-16,0,9.0302,9.0302,0,0,0
-2.8983,-6.0817e-16,0,9.0336,9.0336,0,0,0
-2.9483,-6.1021e-16,0,9.037,9.037,0,0,0
-2.9984,-6.1226e-16,0,9.0403,9.0403,0,0,0
-3.0485,-6.143e-16,0,9.0435,9.0435,0,0,0
-3.0986,-6.1635e-16,0,9.0466,9.0466,0,0,0
-3.1486,-6.1839e-16,0,9.0497,9.0497,0,0,0
-3.1987,-6.2043e-16,0,9.0526,9.0526,0,0,0
-3.2488,-6.2248e-16,0,9.0556,9.0556,0,0,0
-3.2988,-6.2452e-16,0,9.0585,9.0585,0,0,0
-3.3489,-6.2657e-16,0,9.0613,9.0613,0,0,0
-3.399,-6.2861e-16,0,9.064,9.064,0,0,0
-3.449,-6.3065e-16,0,9.0668,9.0668,0,0,0
-3.4991,-6.327e-16,0,9.0695,9.0695,0,0,0
-3.5492,-6.3474e-16,0,9.0721,9.0721,0,0,0
-3.5992,-6.3679e-16,0,9.0748,9.0748,0,0,0
-3.6493,-6.3883e-16,0,9.0773,9.0773,0,0,0
-3.6994,-6.4087e-16,0,9.0799,9.0799,0,0,0
-3.7495,-6.4292e-16,0,9.0824,9.0824,0,0,0
-3.7995,-6.4496e-16,0,9.085,9.085,0,0,0
-3.8496,-6.4701e-16,0,9.0874,9.0874,0,0,0
-3.8997,-6.4905e-16,0,9.0899,9.0899,0,0,0
-3.9497,-6.5109e-16,0,9.0923,9.0923,0,0,0
-3.9998,-6.5314e-16,0,9.0948,9.0948,0,0,0
-4.0499,-6.5518e-16,0,9.0971,9.0971,0,0,0
-4.0999,-6.5722e-16,0,9.0995,9.0995,0,0,0
-4.15,-6.5927e-16,0,9.1019,9.1019,0,0,0
-4.2001,-6.6131e-16,0,9.1042,9.1042,0,0,0
-4.2501,-6.6336e-16,0,9.1066,9.1066,0,0,0
-4.3002,-6.654e-16,0,9.1089,9.1089,0,0,0
-4.3503,-6.6744e-16,0,9.1112,9.1112,0,0,0
-4.4004,-6.6949e-16,0,9.1135,9.1135,0,0,0
-4.4504,-6.7153e-16,0,9.1158,9.1158,0,0,0
-4.5005,-6.7358e-16,0,9.1181,9.1181,0,0,0
-4.5506,-6.7562e-16,0,9.1204,9.1204,0,0,0
-4.6006,-6.7766e-16,0,9.1226,9.1226,0,0,0
-4.6507,-6.7971e-16,0,9.1249,9.1249,0,0,0
-4.7008,-6.8175e-16,0,9.1271,9.1271,0,0,0
-4.7508,-6.838e-16,0,9.1293,9.1293,0,0,0
-4.8009,-6.8584e-16,0,9.1316,9.1316,0,0,0
-4.851,-6.8788e-16,0,9.1338,9.1338,0,0,0
-4.901,-6.8993e-16,0,9.136,9.136,0,0,0
-4.9511,-6.9197e-16,0,9.1382,9.1382,0,0,0
-5.0012,-6.9401e-16,0,9.1403,9.1403,0,0,0
-5.0512,-6.9606e-16,0,9.1425,9.1425,0,0,0
-5.1013,-6.981e-16,0,9.1446,9.1446,0,0,0
-5.1514,-7.0015e-16,0,9.1468,9.1468,0,0,0
-5.2015,-7.0219e-16,0,9.1489,9.1489,0,0,0
-5.2515,-7.0423e-16,0,9.151,9.151,0,0,0
-5.3016,-7.0628e-16,0,9.1531,9.1531,0,0,0
-5.3517,-7.0832e-16,0,9.1552,9.1552,0,0,0
-5.4017,-7.1037e-16,0,9.1573,9.1573,0,0,0
-5.4518,-7.1241e-16,0,9.1593,9.1593,0,0,0
-5.5019,-7.1445e-16,0,9.1614,9.1614,0,0,0
-5.5519,-7.165e-16,0,9.1634,9.1634,0,0,0
-5.602,-7.1854e-16,0,9.1654,9.1654,0,0,0
-5.6521,-7.2059e-16,0,9.1674,9.1674,0,0,0
-5.7021,-7.2263e-16,0,9.1693,9.1693,0,0,0
-5.7522,-7.2467e-16,0,9.1712,9.1712,0,0,0
-5.8023,-7.2672e-16,0,9.1732,9.1732,0,0,0
-5.8524,-7.2876e-16,0,9.1753,9.1753,0,0,0
-5.9024,-7.308e-16,0,9.1776,9.1776,0,0,0
-5.9524,-7.3284e-16,0,9.1798,9.1798,0,0,0
-6,0.073961,0,9.1825,9.3335,0.54792,0,0
-6,0.096024,0,9.1841,9.4248,0.69443,0,0
-6,0.054775,0,9.182,9.2685,0.4142,0,0
-6,0.038092,0,9.1818,9.2252,0.29313,0,0
-6,0.023584,0,9.1816,9.1989,0.18423,0,0
-6,0.01097,0,9.1815,9.1855,0.086793,0,0
-6,-1e-15,0,9.1815,9.1815,-7.9936e-15,0,0
0.019983,-4.8904e-16,0,6.3217,6.3217,0,0,0
0.039967,-4.8823e-16,0,6.2494,6.2494,0,0,0
0.059951,-4.8741e-16,0,6.1776,6.1776,0,0,0
0.079966,-4.8659e-16,0,6.1065,6.1065,0,0,0
0.10003,-4.8578e-16,0,6.0363,6.0363,0,0,0
0.12016,-4.8495e-16,0,5.9672,5.9672,0,0,0
0.14037,-4.8413e-16,0,5.8996,5.8996,0,0,0
0.16054,-4.8331e-16,0,5.834,5.834,0,0,0
0.18066,-4.8248e-16,0,5.7706,5.7706,0,0,0
0.20071,-4.8167e-16,0,5.7098,5.7098,0,0,0
0.22071,-4.8085e-16,0,5.6514,5.6514,0,0,0
0.2407,-4.8003e-16,0,5.5955,5.5955,0,0,0
0.26068,-4.7922e-16,0,5.542,5.542,0,0,0
0.28067,-4.784e-16,0,5.491,5.491,0,0,0
0.30065,-4.7759e-16,0,5.4425,5.4425,0,0,0
0.32063,-4.7677e-16,0,5.3965,5.3965,0,0,0
0.34061,-4.7595e-16,0,5.3529,5.3529,0,0,0
0.3606,-4.7514e-16,0,5.3116,5.3116,0,0,0
0.38058,-4.7432e-16,0,5.2725,5.2725,0,0,0
0.40056,-4.7351e-16,0,5.2356,5.2356,0,0,0
0.42055,-4.7269e-16,0,5.2008,5.2008,0,0,0
0.44053,-4.7188e-16,0,5.1679,5.1679,0,0,0
0.46051,-4.7106e-16,0,5.1368,5.1368,0,0,0
0.4805,-4.7024e-16,0,5.1075,5.1075,0,0,0
0.50048,-4.6943e-16,0,5.0797,5.0797,0,0,0
0.52046,-4.6861e-16,0,5.0535,5.0535,0,0,0
0.54045,-4.678e-16,0,5.0286,5.0286,0,0,0
0.56047,-4.6698e-16,0,5.005,5.005,0,0,0
0.58054,-4.6616e-16,0,4.9826,4.9826,0,0,0
0.60068,-4.6534e-16,0,4.9612,4.9612,0,0,0
0.6209,-4.6451e-16,0,4.9407,4.9407,0,0,0
0.64106,-4.6369e-16,0,4.9212,4.9212,0,0,0
0.66118,-4.6287e-16,0,4.9027,4.9027,0,0,0
0.68122,-4.6205e-16,0,4.885,4.885,0,0,0
0.70121,-4.6123e-16,0,4.868,4.868,0,0,0
0.7212,-4.6042e-16,0,4.8517,4.8517,0,0,0
0.74118,-4.596e-16,0,4.836,4.836,0,0,0
0.76116,-4.5879e-16,0,4.8208,4.8208,0,0,0
0.78115,-4.5797e-16,0,4.8061,4.8061,0,0,0
0.80113,-4.5716e-16,0,4.7918,4.7918,0,0,0
0.82111,-4.5634e-16,0,4.7779,4.7779,0,0,0
0.8411,-4.5552e-16,0,4.7643,4.7643,0,0,0
0.86108,-4.5471e-16,0,4.7511,4.7511,0,0,0
0.88106,-4.5389e-16,0,4.7381,4.7381,0,0,0
0.90104,-4.5308e-16,0,4.7254,4.7254,0,0,0
0.92103,-4.5226e-16,0,4.7129,4.7129,0,0,0
0.94101,-4.5145e-16,0,4.7006,4.7006,0,0,0
0.96099,-4.5063e-16,0,4.6885,4.6885,0,0,0
0.98098,-4.4981e-16,0,4.6766,4.6766,0,0,0
1.001,-4.49e-16,0,4.6648,4.6648,0,0,0
1.0209,-4.4818e-16,0,4.6531,4.6531,0,0,0
1.041,-4.4736e-16,0,4.6415,4.6415,0,0,0
1.061,-4.4655e-16,0,4.63,4.63,0,0,0
1.0812,-4.4572e-16,0,4.6185,4.6185,0,0,0
1.1014,-4.449e-16,0,4.6071,4.6071,0,0,0
1.1216,-4.4407e-16,0,4.5958,4.5958,0,0,0
1.1417,-4.4325e-16,0,4.5846,4.5846,0,0,0
1.1617,-4.4244e-16,0,4.5734,4.5734,0,0,0
1.1817,-4.4162e-16,0,4.5624,4.5624,0,0,0
1.2017,-4.408e-16,0,4.5514,4.5514,0,0,0
1.2217,-4.3999e-16,0,4.5404,4.5404,0,0,0
1.2417,-4.3917e-16,0,4.5294,4.5294,0,0,0
1.2616,-4.3836e-16,0,4.5185,4.5185,0,0,0
1.2816,-4.3754e-16,0,4.5076,4.5076,0,0,0
1.3016,-4.3673e-16,0,4.4967,4.4967,0,0,0
1.3216,-4.3591e-16,0,4.4858,4.4858,0,0,0
1.3416,-4.3509e-16,0,4.475,4.475,0,0,0
1.3616,-4.3428e-16,0,4.4641,4.4641,0,0,0
1.3815,-4.3346e-16,0,4.4533,4.4533,0,0,0
1.4015,-4.3265e-16,0,4.4425,4.4425,0,0,0
1.4215,-4.3183e-16,0,4.4317,4.4317,0,0,0
1.4415,-4.3101e-16,0,4.4209,4.4209,0,0,0
1.4615,-4.302e-16,0,4.4101,4.4101,0,0,0
1.4815,-4.2938e-16,0,4.3994,4.3994,0,0,0
1.5014,-4.2857e-16,0,4.3886,4.3886,0,0,0
1.5215,-4.2775e-16,0,4.3778,4.3778,0,0,0
1.5416,-4.2693e-16,0,4.367,4.367,0,0,0
1.5617,-4.2611e-16,0,4.3562,4.3562,0,0,0
1.5819,-4.2528e-16,0,4.3453,4.3453,0,0,0
1.6021,-4.2446e-16,0,4.3345,4.3345,0,0,0
1.6222,-4.2364e-16,0,4.3238,4.3238,0,0,0
1.6422,-4.2282e-16,0,4.3131,4.3131,0,0,0
1.6622,-4.22e-16,0,4.3024,4.3024,0,0,0
1.6822,-4.2119e-16,0,4.2918,4.2918,0,0,0
1.7022,-4.2037e-16,0,4.2811,4.2811,0,0,0
1.7222,-4.1956e-16,0,4.2705,4.2705,0,0,0
1.7421,-4.1874e-16,0,4.2599,4.2599,0,0,0
1.7621,-4.1793e-16,0,4.2493,4.2493,0,0,0
1.7821,-4.1711e-16,0,4.2386,4.2386,0,0,0
1.8021,-4.1629e-16,0,4.228,4.228,0,0,0
1.8221,-4.1548e-16,0,4.2175,4.2175,0,0,0
1.8421,-4.1466e-16,0,4.2069,4.2069,0,0,0
1.862,-4.1385e-16,0,4.1963,4.1963,0,0,0
1.882,-4.1303e-16,0,4.1858,4.1858,0,0,0
1.902,-4.1222e-16,0,4.1753,4.1753,0,0,0
1.922,-4.114e-16,0,4.1647,4.1647,0,0,0
1.942,-4.1058e-16,0,4.1542,4.1542,0,0,0
1.962,-4.0977e-16,0,4.1438,4.1438,0,0,0
1.9819,-4.0895e-16,0,4.1333,4.1333,0,0,0
2.002,-4.0814e-16,0,4.1228,4.1228,0,0,0
2.0221,-4.0731e-16,0,4.1123,4.1123,0,0,0
2.0422,-4.0649e-16,0,4.1018,4.1018,0,0,0
2.0625,-4.0567e-16,0,4.0913,4.0913,0,0,0
2.0826,-4.0484e-16,0,4.0808,4.0808,0,0,0
2.1027,-4.0402e-16,0,4.0704,4.0704,0,0,0
2.1227,-4.0321e-16,0,4.06,4.06,0,0,0
2.1427,-4.0239e-16,0,4.0497,4.0497,0,0,0
2.1627,-4.0157e-16,0,4.0394,4.0394,0,0,0
2.1827,-4.0076e-16,0,4.0292,4.0292,0,0,0
2.2027,-3.9994e-16,0,4.0189,4.0189,0,0,0
2.2226,-3.9913e-16,0,4.0087,4.0087,0,0,0
2.2426,-3.9831e-16,0,3.9984,3.9984,0,0,0
2.2626,-3.975e-16,0,3.9882,3.9882,0,0,0
2.2826,-3.9668e-16,0,3.9781,3.9781,0,0,0
2.3026,-3.9586e-16,0,3.9679,3.9679,0,0,0
2.3226,-3.9505e-16,0,3.9577,3.9577,0,0,0
2.3425,-3.9423e-16,0,3.9476,3.9476,0,0,0
2.3625,-3.9342e-16,0,3.9374,3.9374,0,0,0
2.3825,-3.926e-16,0,3.9273,3.9273,0,0,0
2.4025,-3.9179e-16,0,3.9172,3.9172,0,0,0
2.4225,-3.9097e-16,0,3.9071,3.9071,0,0,0
2.4425,-3.9015e-16,0,3.8971,3.8971,0,0,0
2.4624,-3.8934e-16,0,3.887,3.887,0,0,0
2.4825,-3.8852e-16,0,3.877,3.877,0,0,0
2.5026,-3.877e-16,0,3.8669,3.8669,0,0,0
2.5228,-3.8688e-16,0,3.8568,3.8568,0,0,0
2.543,-3.8605e-16,0,3.8467,3.8467,0,0,0
2.5631,-3.8523e-16,0,3.8367,3.8367,0,0,0
2.5832,-3.8441e-16,0,3.8267,3.8267,0,0,0
2.6032,-3.8359e-16,0,3.8168,3.8168,0,0,0
2.6232,-3.8277e-16,0,3.8069,3.8069,0,0,0
2.6432,-3.8196e-16,0,3.7971,3.7971,0,0,0
2.6632,-3.8114e-16,0,3.7872,3.7872,0,0,0
2.6832,-3.8033e-16,0,3.7774,3.7774,0,0,0
2.7031,-3.7951e-16,0,3.7675,3.7675,0,0,0
2.7231,-3.787e-16,0,3.7577,3.7577,0,0,0
2.7431,-3.7788e-16,0,3.7479,3.7479,0,0,0
2.7631,-3.7706e-16,0,3.7381,3.7381,0,0,0
2.7831,-3.7625e-16,0,3.7284,3.7284,0,0,0
2.8031,-3.7543e-16,0,3.7186,3.7186,0,0,0
2.823,-3.7462e-16,0,3.7088,3.7088,0,0,0
2.843,-3.738e-16,0,3.6991,3.6991,0,0,0
2.863,-3.7299e-16,0,3.6893,3.6893,0,0,0
2.883,-3.7217e-16,0,3.6796,3.6796,0,0,0
2.903,-3.7135e-16,0,3.6698,3.6698,0,0,0
2.923,-3.7054e-16,0,3.66,3.66,0,0,0
2.943,-3.6972e-16,0,3.6502,3.6502,0,0,0
2.963,-3.689e-16,0,3.6403,3.6403,0,0,0
2.9831,-3.6808e-16,0,3.6303,3.6303,0,0,0
3.0033,-3.6726e-16,0,3.6201,3.6201,0,0,0
3.0242,-3.664e-16,0,3.6095,3.6095,0,0,0
3.0476,-3.6545e-16,0,3.5975,3.5975,0,0,0
3.0742,-3.6437e-16,0,3.5841,3.5841,0,0,0
3.1042,-3.6314e-16,0,3.5695,3.5695,0,0,0
3.1341,-3.6192e-16,0,3.5556,3.5556,0,0,0
3.1641,-3.6069e-16,0,3.5422,3.5422,0,0,0
3.1941,-3.5947e-16,0,3.5291,3.5291,0,0,0
3.2241,-3.5825e-16,0,3.5159,3.5159,0,0,0
3.254,-3.5702e-16,0,3.5026,3.5026,0,0,0
3.284,-3.558e-16,0,3.4892,3.4892,0,0,0
3.314,-3.5458e-16,0,3.4755,3.4755,0,0,0
3.344,-3.5335e-16,0,3.4617,3.4617,0,0,0
3.3739,-3.5213e-16,0,3.4479,3.4479,0,0,0
3.4039,-3.5091e-16,0,3.4339,3.4339,0,0,0
3.4339,-3.4968e-16,0,3.4199,3.4199,0,0,0
3.4639,-3.4846e-16,0,3.4059,3.4059,0,0,0
3.4938,-3.4723e-16,0,3.3918,3.3918,0,0,0
3.5238,-3.4601e-16,0,3.3778,3.3778,0,0,0
3.5538,-3.4479e-16,0,3.3638,3.3638,0,0,0
3.5838,-3.4356e-16,0,3.3498,3.3498,0,0,0
3.6137,-3.4234e-16,0,3.3358,3.3358,0,0,0
3.6437,-3.4112e-16,0,3.3219,3.3219,0,0,0
3.6737,-3.3989e-16,0,3.3079,3.3079,0,0,0
3.7037,-3.3867e-16,0,3.2939,3.2939,0,0,0
3.7336,-3.3745e-16,0,3.28,3.28,0,0,0
3.7636,-3.3622e-16,0,3.266,3.266,0,0,0
3.7936,-3.35e-16,0,3.2521,3.2521,0,0,0
3.8236,-3.3378e-16,0,3.2381,3.2381,0,0,0
3.8535,-3.3255e-16,0,3.2242,3.2242,0,0,0
3.8835,-3.3133e-16,0,3.2103,3.2103,0,0,0
3.9135,-3.301e-16,0,3.1964,3.1964,0,0,0
3.9435,-3.2888e-16,0,3.1826,3.1826,0,0,0
3.9734,-3.2766e-16,0,3.1688,3.1688,0,0,0
4.0034,-3.2643e-16,0,3.1551,3.1551,0,0,0
4.0334,-3.2521e-16,0,3.1415,3.1415,0,0,0
4.0634,-3.2399e-16,0,3.1279,3.1279,0,0,0
4.0933,-3.2276e-16,0,3.1143,3.1143,0,0,0
4.1233,-3.2154e-16,0,3.1007,3.1007,0,0,0
4.1533,-3.2032e-16,0,3.0872,3.0872,0,0,0
4.1833,-3.1909e-16,0,3.0736,3.0736,0,0,0
4.2132,-3.1787e-16,0,3.0601,3.0601,0,0,0
4.2432,-3.1664e-16,0,3.0466,3.0466,0,0,0
4.2732,-3.1542e-16,0,3.0332,3.0332,0,0,0
4.3032,-3.142e-16,0,3.0198,3.0198,0,0,0
4.3331,-3.1297e-16,0,3.0064,3.0064,0,0,0
4.3631,-3.1175e-16,0,2.9931,2.9931,0,0,0
4.3931,-3.1053e-16,0,2.9798,2.9798,0,0,0
4.4231,-3.093e-16,0,2.9666,2.9666,0,0,0
4.453,-3.0808e-16,0,2.9534,2.9534,0,0,0
4.483,-3.0686e-16,0,2.9403,2.9403,0,0,0
4.513,-3.0563e-16,0,2.9272,2.9272,0,0,0
4.543,-3.0441e-16,0,2.9142,2.9142,0,0,0
4.5729,-3.0318e-16,0,2.9011,2.9011,0,0,0
4.6029,-3.0196e-16,0,2.8881,2.8881,0,0,0
4.6329,-3.0074e-16,0,2.875,2.875,0,0,0
4.6628,-2.9951e-16,0,2.862,2.862,0,0,0
4.6928,-2.9829e-16,0,2.849,2.849,0,0,0
4.7228,-2.9707e-16,0,2.836,2.836,0,0,0
4.7528,-2.9584e-16,0,2.823,2.823,0,0,0
4.7827,-2.9462e-16,0,2.8099,2.8099,0,0,0
4.8127,-2.934e-16,0,2.7968,2.7968,0,0,0
4.8427,-2.9217e-16,0,2.7836,2.7836,0,0,0
4.8727,-2.9095e-16,0,2.7704,2.7704,0,0,0
4.9026,-2.8973e-16,0,2.7571,2.7571,0,0,0
4.9326,-2.885e-16,0,2.7437,2.7437,0,0,0
4.9626,-2.8728e-16,0,2.7301,2.7301,0,0,0
4.9926,-2.8605e-16,0,2.7163,2.7163,0,0,0
5.0226,-2.8483e-16,0,2.7024,2.7024,0,0,0
5.0527,-2.836e-16,0,2.6886,2.6886,0,0,0
5.0883,-2.8215e-16,0,2.6734,2.6734,0,0,0
5.1308,-2.8041e-16,0,2.6569,2.6569,0,0,0
5.18,-2.784e-16,0,2.6399,2.6399,0,0,0
5.2302,-2.7635e-16,0,2.6242,2.6242,0,0,0
5.2804,-2.7431e-16,0,2.6094,2.6094,0,0,0
5.3305,-2.7226e-16,0,2.5948,2.5948,0,0,0
5.3807,-2.7021e-16,0,2.5798,2.5798,0,0,0
5.4309,-2.6816e-16,0,2.5643,2.5643,0,0,0
5.481,-2.6611e-16,0,2.5482,2.5482,0,0,0
5.5312,-2.6407e-16,0,2.5314,2.5314,0,0,0
5.5814,-2.6202e-16,0,2.5141,2.5141,0,0,0
5.6315,-2.5997e-16,0,2.4963,2.4963,0,0,0
5.6817,-2.5792e-16,0,2.4783,2.4783,0,0,0
5.7319,-2.5588e-16,0,2.4603,2.4603,0,0,0
5.782,-2.5383e-16,0,2.4426,2.4426,0,0,0
5.8322,-2.5178e-16,0,2.4255,2.4255,0,0,0
5.8824,-2.4973e-16,0,2.4091,2.4091,0,0,0
5.9325,-2.4768e-16,0,2.3929,2.3929,0,0,0
5.9827,-2.4564e-16,0,2.3764,2.3764,0,0,0
6.0329,-2.4359e-16,0,2.359,2.359,0,0,0
6.083,-2.4154e-16,0,2.3408,2.3408,0,0,0
6.1332,-2.3949e-16,0,2.3222,2.3222,0,0,0
6.1834,-2.3744e-16,0,2.3037,2.3037,0,0,0
6.2335,-2.354e-16,0,2.2856,2.2856,0,0,0
6.2837,-2.3335e-16,0,2.2675,2.2675,0,0,0
6.3338,-2.313e-16,0,2.2493,2.2493,0,0,0
6.384,-2.2925e-16,0,2.2308,2.2308,0,0,0
6.4342,-2.2721e-16,0,2.2118,2.2118,0,0,0
6.4843,-2.2516e-16,0,2.1925,2.1925,0,0,0
6.5345,-2.2311e-16,0,2.1731,2.1731,0,0,0
6.5847,-2.2106e-16,0,2.1534,2.1534,0,0,0
6.6348,-2.1901e-16,0,2.1335,2.1335,0,0,0
6.685,-2.1697e-16,0,2.1136,2.1136,0,0,0
6.7352,-2.1492e-16,0,2.0942,2.0942,0,0,0
6.7853,-2.1287e-16,0,2.0756,2.0756,0,0,0
6.8355,-2.1082e-16,0,2.0579,2.0579,0,0,0
6.8857,-2.0878e-16,0,2.0407,2.0407,0,0,0
6.9358,-2.0673e-16,0,2.0235,2.0235,0,0,0
6.986,-2.0468e-16,0,2.0056,2.0056,0,0,0
7.0362,-2.0263e-16,0,1.9871,1.9871,0,0,0
7.0863,-2.0058e-16,0,1.9682,1.9682,0,0,0
7.1365,-1.9854e-16,0,1.9489,1.9489,0,0,0
7.1867,-1.9649e-16,0,1.9296,1.9296,0,0,0
7.2368,-1.9444e-16,0,1.9102,1.9102,0,0,0
7.287,-1.9239e-16,0,1.8908,1.8908,0,0,0
7.3371,-1.9034e-16,0,1.8712,1.8712,0,0,0
7.3873,-1.883e-16,0,1.8516,1.8516,0,0,0
7.4375,-1.8625e-16,0,1.8317,1.8317,0,0,0
7.4876,-1.842e-16,0,1.8116,1.8116,0,0,0
7.5378,-1.8215e-16,0,1.7913,1.7913,0,0,0
7.588,-1.8011e-16,0,1.7709,1.7709,0,0,0
7.6381,-1.7806e-16,0,1.7506,1.7506,0,0,0
7.6883,-1.7601e-16,0,1.7303,1.7303,0,0,0
7.7385,-1.7396e-16,0,1.7101,1.7101,0,0,0
7.7886,-1.7191e-16,0,1.6899,1.6899,0,0,0
7.8388,-1.6987e-16,0,1.6696,1.6696,0,0,0
7.889,-1.6782e-16,0,1.6494,1.6494,0,0,0
7.9391,-1.6577e-16,0,1.6291,1.6291,0,0,0
7.9893,-1.6372e-16,0,1.6087,1.6087,0,0,0
8.0395,-1.6168e-16,0,1.5884,1.5884,0,0,0
8.0896,-1.5963e-16,0,1.5679,1.5679,0,0,0
8.1398,-1.5758e-16,0,1.5475,1.5475,0,0,0
8.19,-1.5553e-16,0,1.5269,1.5269,0,0,0
8.2401,-1.5348e-16,0,1.5064,1.5064,0,0,0
8.2903,-1.5144e-16,0,1.4858,1.4858,0,0,0
8.3405,-1.4939e-16,0,1.4652,1.4652,0,0,0
8.3906,-1.4734e-16,0,1.4445,1.4445,0,0,0
8.4408,-1.4529e-16,0,1.4238,1.4238,0,0,0
8.4909,-1.4325e-16,0,1.4031,1.4031,0,0,0
8.5411,-1.412e-16,0,1.3824,1.3824,0,0,0
8.5913,-1.3915e-16,0,1.3617,1.3617,0,0,0
8.6414,-1.371e-16,0,1.3409,1.3409,0,0,0
8.6916,-1.3505e-16,0,1.3201,1.3201,0,0,0
8.7418,-1.3301e-16,0,1.2994,1.2994,0,0,0
8.7919,-1.3096e-16,0,1.2786,1.2786,0,0,0
8.8421,-1.2891e-16,0,1.2578,1.2578,0,0,0
8.8923,-1.2686e-16,0,1.237,1.237,0,0,0
8.9424,-1.2481e-16,0,1.2162,1.2162,0,0,0
8.9926,-1.2277e-16,0,1.1953,1.1953,0,0,0
9.0428,-1.2072e-16,0,1.1745,1.1745,0,0,0
9.0929,-1.1867e-16,0,1.1537,1.1537,0,0,0
9.1431,-1.1662e-16,0,1.1329,1.1329,0,0,0
9.1933,-1.1458e-16,0,1.112,1.112,0,0,0
9.2434,-1.1253e-16,0,1.0912,1.0912,0,0,0
9.2936,-1.1048e-16,0,1.0704,1.0704,0,0,0
9.3438,-1.0843e-16,0,1.0496,1.0496,0,0,0
9.3939,-1.0638e-16,0,1.0287,1.0287,0,0,0
9.4441,-1.0434e-16,0,1.0079,1.0079,0,0,0
9.4943,-1.0229e-16,0,0.98713,0.98713,0,0,0
9.5444,-1.0024e-16,0,0.96636,0.96636,0,0,0
9.5946,-9.8193e-17,0,0.94562,0.94562,0,0,0
9.6447,-9.6145e-17,0,0.92492,0.92492,0,0,0
9.6949,-9.4097e-17,0,0.90426,0.90426,0,0,0
9.7451,-9.205e-17,0,0.88364,0.88364,0,0,0
9.7952,-9.0002e-17,0,0.86306,0.86306,0,0,0
9.8454,-8.7954e-17,0,0.84249,0.84249,0,0,0
9.8956,-8.5906e-17,0,0.82191,0.82191,0,0,0
9.9457,-8.3858e-17,0,0.80131,0.80131,0,0,0
9.9959,-8.181e-17,0,0.78065,0.78065,0,0,0
10.046,-7.9763e-17,0,0.75989,0.75989,0,0,0
10.096,-7.7715e-17,0,0.7391,0.7391,0,0,0
10.146,-7.5667e-17,0,0.71842,0.71842,0,0,0
10.197,-7.3619e-17,0,0.69787,0.69787,0,0,0
10.247,-7.1571e-17,0,0.67737,0.67737,0,0,0
10.297,-6.9524e-17,0,0.65704,0.65704,0,0,0
